Time (s),Linear Acceleration x (m/s^2),Linear Acceleration y (m/s^2),Linear Acceleration z (m/s^2),Absolute acceleration (m/s^2)
0.0179012916632928,-0.642409025430679,0.517171606421471,-1.62079321503639,1.81855065157706
0.0278882916682051,-0.772333864867687,0.308143002390861,-1.14571629881859,1.41566858625968
0.0378742916655028,-0.810044020414352,0.318057541251183,-0.571321501135826,1.04102842046502
0.0478602916628006,-0.738859432339668,0.270265031754971,-0.28823147892952,0.837874592998684
0.0578472916677129,-0.638736389279366,0.154243116974831,-0.174280940294266,0.679815386905597
0.0678332916650106,-0.40899665504694,0.182503879666328,-0.217014731168747,0.497675922139188
0.0778202916626469,-0.0952792096138001,0.325740197896957,-0.325855388045311,0.470496055486908
0.0878062916672207,0.166155357062817,0.427532328665257,-0.324480707645416,0.561853383338286
0.0977922916645184,0.174558975398541,0.508677356243134,-0.129819881916046,0.553241981765112
0.107779291662155,0.0393155086040497,0.527483171224594,0.163315072059631,0.553584698039778
0.117765291666728,0.0227734431624413,0.496622151732445,0.30398914039135,0.58271913370054
0.127751291664026,0.0519051486253738,0.511296616494656,0.472048058509827,0.697816411411771
0.137738291668938,0.0341570949554443,0.556411685943604,0.505671302676201,0.752638118713532
0.147724291666236,0.135157805085182,0.532543351650238,0.467737491130829,0.721559709429286
0.157710291663534,0.406474750936031,0.41652055978775,0.383746916055679,0.697117490425146
0.167697291668446,0.707387671172619,0.267364374250174,0.166687161326408,0.774380807933838
0.177683291665744,0.996394783258438,0.165063681900501,0.0983489978313446,1.01475174725723
0.18767029166338,1.15826968610287,0.0416716441512108,0.645154293179512,1.32648002385225
0.197656291667954,1.27164544343948,-0.13082779571414,1.41641899466515,1.90799392409935
0.207642291665252,1.1462966349721,-0.292418231517076,1.97559699833393,2.3027131600132
0.217629291662888,0.893900109529495,-0.369415098130703,1.99101435184479,2.21351825603397
0.227615291667462,0.622979604899883,-0.398795310258865,1.6456450510025,1.80424192432576
0.23760129166476,0.180769595503807,-0.218692735880613,1.59210619032383,1.61719086092304
0.247588291662396,-0.24183455362916,0.144112158045173,1.14610513865948,1.18017340009302
0.25757429166697,-0.0351303640007973,0.435226825922728,0.0790707278251648,0.443743971763451
0.267560291664267,0.715668205618858,0.50489501170814,-0.614544119238853,1.06993664666303
0.277547291661904,1.60349700495601,0.631241939887405,-0.0134971278905869,1.72332562333327
0.287533291666477,2.48169163942337,0.696803114488721,1.43676847457886,2.95103907515449
0.297519291663775,3.45215840667486,0.169716676846147,2.47526613414288,4.25125203322624
0.307506291668687,3.90389177620411,-0.836695044636726,1.46290260493755,4.25211872242142
0.317492291665985,3.19218681335449,-1.75428251713514,-0.943402052521706,3.76265481196222
0.327479291663622,2.06838383227587,-1.21444154798985,-2.76243634343147,3.65843333991686
0.337465291668195,0.730647456496954,-0.571151054799557,-3.76837085902691,3.88080895745298
0.347451291665493,-0.724981943070889,-0.654345823824406,-3.77800882458687,3.90219399230632
0.357438291663129,-1.99670661628246,-1.08695616692305,-3.31220617711544,4.01734001299864
0.367424291667703,-3.08913548469543,-1.80891509950161,-2.9604207265377,4.64532267535028
0.377410291665001,-4.25765533983707,-2.66526702135801,-1.55062721192837,5.25696890216734
0.387397291662637,-6.20834086060524,-3.47515433639288,4.87036694169045,8.62210345854896
0.397383291667211,-7.63719688296318,-4.74096981346607,3.74387219488621,9.73756386438524
0.407369291664509,-6.16022061467171,-4.90763767898083,-3.77871984601021,8.73567108379259
0.417356291662145,-3.90895780384541,-3.94243018984795,-3.54251338362694,6.58575037389396
0.427342291666719,-2.60727462887764,-4.30287829041481,-3.50366565227509,6.13093105290251
0.437328291664016,-1.14543797135353,-4.08845796883106,-3.78838704764843,5.69028937154404
0.447315291668929,0.762822199165821,-4.0335847735405,-5.13914941191673,6.5774281076179
0.457301291666226,1.6064347922802,-4.65308089971542,-6.00717910051346,7.76646607839051
0.467287291663524,0.192914847135544,-5.55512208759785,-6.34691460907459,8.4368194600363
0.477274291668437,-2.32229507893324,-5.97189349293709,-4.92024486064911,8.07869889359455
0.487260291665734,-4.73987462997437,-6.06998989105225,-2.18591198980808,8.00558555088495
0.497247291663371,-7.19357564806938,-6.44415146648884,0.339940745830536,9.66385939665013
0.507233291667944,-9.9853369474411,-5.56429461479187,1.19003176152706,11.4928022739268
0.517219291665242,-8.2399372279644,-3.16777936577797,-0.929523101449013,8.87667757819161
0.527206291662878,-2.61890357136726,-3.00150969564915,-2.15185254335403,4.52749221286302
0.537192291667452,-0.289630132913589,-4.55630538761616,-1.85844861745834,4.92926319675105
0.54717829166475,0.618153605461121,-5.5820309740305,-2.38199427366257,6.1004164115855
0.557165291662386,-0.00631440818309784,-5.89438631057739,-3.06025374770164,6.64145939160926
0.56715129166696,-2.55638397216797,-5.3107131510973,-2.56363890498877,6.42736474937957
0.577137291664258,-1.95491832017899,-4.30028037250042,-3.97629463165998,6.17454742620476
0.587124291661894,0.719085903167725,-4.25698904961348,-5.38416178107262,6.90132149587502
0.597110291666468,2.56351640582085,-5.03335456967354,-4.87413167148829,7.46079313062434
0.607096291663765,1.96571344971657,-5.30882333099842,-3.37976812273264,6.59321371484267
0.617083291668678,0.054051661491394,-3.73353811830282,-2.50920074254274,4.49870168263103
0.627069291665976,-0.242778148055077,-1.93392652362585,-2.67144080400467,3.30690323373058
0.637055291663273,2.69769480228424,-0.934245312809944,-3.11716674417257,4.22694926179085
0.647042291668186,7.20797967910767,0.429181243479252,-2.8051441141963,7.74648314369776
0.657028291665483,10.725188652277,1.90865631937981,1.25823894739151,10.9661208191946
0.667014291662781,11.2963271355629,1.68827183783054,4.18361760288477,12.1638778684774
0.677001291667693,10.2319163703918,1.6423305568099,1.28890101537108,10.4427308734808
0.686987291664991,8.55416542768479,1.49070231467485,3.60042479217052,9.39994671470273
0.696974291662627,7.38346046805382,1.43984235584736,4.74696087062359,8.89507009529644
0.706960291667201,6.88900938749313,2.0826070381701,4.40929527640343,8.44023620824191
0.716946291664499,6.93861014842987,2.94646868526936,3.40564936101437,8.27190643535966
0.726933291662135,7.53693467617035,3.79282099127769,2.23665061891079,8.72888775135812
0.736919291666709,7.41565991520882,4.40432192713022,0.993257313519716,8.68197118785218
0.746905291664007,6.65238660335541,4.61231791287661,0.0396910460293293,8.0950169505122
0.756892291668919,5.24431450903416,4.0929866373539,-0.213334566727281,6.65589106886407
0.766878291666217,4.5344104886055,2.52875178515911,-0.227569540143013,5.19685019658272
0.776864291663514,4.16964129567146,0.907396652698517,-0.446337851285934,4.29051217191932
0.786851291668427,2.92086197376251,0.802398712858558,0.532162186279893,3.07546337267656
0.796837291665725,1.91486957073212,1.69081011414528,1.75277656674385,3.09803002050305
0.806823291663022,-0.213342095017433,2.49880848616362,1.59665298521519,2.97302193991674
0.816810291667935,-2.37157687425613,2.4757973536849,1.54366025447845,3.75989845451658
0.826796291665232,-2.87165882349014,1.42109530538321,1.41008879899979,3.50061233023247
0.83678229166253,-2.77995752513409,0.0915542408823967,0.788003525733948,2.89093334014161
0.846769291667442,-2.69728374302387,-1.0699352876097,0.174093865938485,2.90695885492222
0.85675529166474,-3.19840240359306,-1.91934181362391,-0.788339229002595,3.81249651446652
0.866741291662038,-3.87215835213661,-2.05244315296412,-1.95533931970596,4.79890456826959
0.87672829166695,-4.08541917085648,-1.43995842307806,-2.51047631263733,5.00665770530682
0.886714291664248,-3.86313259005547,-0.671943165510893,-2.34411951899528,4.56839111125133
0.896700291668822,-3.62123971045017,-0.504634152799845,-2.08543168187141,4.20916357112269
0.906687291666458,-3.30711968421936,-0.978093290627003,-1.93297722816467,3.95349314600695
0.916673666666611,-2.62567464709282,-1.81504049643874,-1.63821440935135,3.5877967901074
0.926659666663909,-2.24817255735397,-2.43559876933694,-0.910943719893694,3.43747577062717
0.936646666668821,-2.37574067652225,-2.30106047675014,-0.00630432173609734,3.3074254072037
0.946632666666119,-2.33715256154537,-2.08673210263252,0.564357028752565,3.1835878847611
0.956618666663417,-1.82151292562485,-2.13680078700185,0.85802992656827,2.93599085428359
0.966605666668329,-1.10424024403095,-2.28670541614294,1.01967474147677,2.73644016107802
0.976591666665627,-0.413505735397339,-2.40099655508995,0.959042769670486,2.61830756115807
0.986577666662924,0.161586635112762,-2.37781702280045,0.847066397219896,2.52935673954184
0.996564666667837,0.65689842581749,-2.18197652131319,0.611148494929075,2.35924554980137
1.00655066666513,1.36668959498405,-2.13619603872299,0.183780326843262,2.54262643214218
1.01653666666243,1.77309330224991,-2.23826357334852,-0.17040189743042,2.8605454879988
1.02652366666734,1.82001603841782,-2.08234376728535,-0.365856775045395,2.78970699628058
1.03650966666464,1.82751626193523,-1.82545102536678,-0.285242382287979,2.5987401467449
1.04649566666194,1.90918666183949,-1.48088133126497,0.191892900019884,2.42380405811051
1.05648266666685,2.30104074239731,-0.565308809280396,0.755682602673769,2.48705020938584
1.06646866666415,3.00489289462566,0.211799891889095,0.911987886428833,3.14737389062198
1.07645466666872,4.01351479053497,1.1461080622673,1.00650476530194,4.29359016521286
1.08644166666636,4.52508008658886,2.63372158527374,0.944117313176394,5.32016885820547
1.09642766666366,4.48259187877178,3.89193246603012,0.571559482812882,5.96384511151684
1.10641366666823,4.58115546941757,4.96458078861237,-0.0657296475023031,6.75561753122498
1.11640066666587,4.18969607591629,5.66274067640305,-0.998195725679398,7.11453300529997
1.12638666666317,3.58961504459381,6.05894040763378,-2.1718628847599,7.36974106884558
1.13637266666774,3.11943107843399,6.47827698647976,-3.22222512960434,7.87919144027525
1.14635966666538,3.3013110601902,7.1894937068224,-3.62262491583824,8.70120024809365
1.15634566666267,3.77274808466434,8.02342418789864,-3.48702447652817,9.5272400782809
1.16633166666725,4.21396962225437,9.04557887971401,-3.00065658688545,10.4203635828521
1.17631866666488,5.38263682723045,10.2994540500641,-2.43409062623978,11.8733453634596
1.18630466666218,7.28478870391846,11.5279400253296,-2.1531588113308,13.8057104328298
1.19629066666676,8.77094100773335,12.3726264595985,-2.59626432180405,15.3867436483022
1.20627766666439,10.4483007717133,12.4574882698059,-3.82292713522911,16.7024182347888
1.21626366666897,12.8929514694214,12.0439766871929,-5.76216556191444,18.5603912673579
1.22624966666626,15.4184878706932,12.1811044192314,-7.29528796434403,20.9602075269697
1.2362366666639,18.2400150060654,13.0687257885933,-7.82167887568474,23.7627523993595
1.24622266666847,22.4382667279243,13.7360614943504,-8.084788377285,27.5230630968927
1.25620866666577,27.5869903707504,14.2526606583595,-7.53866077423096,31.9532749468213
1.26619566666341,32.6836083054543,14.045209633112,-6.71059680461884,36.2010811299411
1.27618166666798,38.0205140590668,12.5519909691811,-5.78268811941147,40.4543131012316
1.28616766666528,43.4305825138092,10.2779783964157,-4.51470303297043,44.8579411128274
1.29615466666291,48.0229716539383,7.30529488921166,-2.67228981971741,48.6488876828018
1.30614066666749,51.2854232883453,4.52177757918835,0.291616998519748,51.485203260881
1.31612666666479,52.7162369585037,2.08323400586843,2.98350670337677,52.8416768776069
1.32611366666242,53.0710226154327,-0.515776899307966,4.66444028556347,53.2781049816453
1.336099666667,53.3066139507294,-2.59595412701368,6.21963066458702,53.7309768599597
1.34608566666429,53.9899850606918,-4.93906353950501,6.93581751823425,54.657281309513
1.35607266666193,54.419002289772,-7.88169411242008,6.97967982172966,55.4280149627409
1.3660586666665,52.8180393218994,-10.9540568590164,6.25215872526169,54.3030950149818
1.3760446666638,50.6330143547058,-14.4446528148651,4.82115560531616,52.8733740076847
1.38603166666871,48.0252918291092,-18.2484759271145,4.7250227022171,51.5922607419955
1.39601766666601,44.3994380807877,-22.1803624176979,5.81390874266624,49.9707926066635
1.40600366666331,39.4047137260437,-25.9996911764145,7.08964022040367,47.7386468550916
1.41599066666822,33.3134844088554,-28.8334249591827,7.93688071846962,44.7677195518723
1.42597666666552,26.9886822152138,-30.2301821064949,8.08223197460175,41.3228187760336
1.43596266666282,20.9960392928123,-30.4626440119743,7.57676590919495,37.7652449724391
1.44594966666773,15.714043571949,-29.7309234452248,6.68397092342377,34.2860677475867
1.45593566666503,11.3412501239777,-28.3125877332687,5.83837349295616,31.0533924647842
1.46592166666233,8.09157348632813,-26.7459689712524,5.12706087827683,28.4096316580381
1.47590866666724,5.97285477519035,-25.1405036473274,4.60030860900879,26.2465761025113
1.48589466666454,4.7555884373188,-23.4356146073341,4.30996862411499,24.2985489885612
1.49588066666911,3.74555560827255,-22.0253246641159,4.05583927631378,22.706693850265
1.50586766666675,2.98453055083752,-20.8479012537003,4.20149488002062,21.4754503682637
1.51585366666404,3.13871811926365,-19.8137697100639,4.87044295549393,20.6436003676287
1.52583966666862,3.84934134721756,-18.9688283371925,5.08422885417938,20.0120778615052
1.53582666666625,4.16466589987278,-18.4540722155571,4.85101704329252,19.5302224705423
1.54581266666355,3.87512698352337,-17.9699660289288,4.52070958524942,18.9307449238917
1.55579866666812,3.1999934309721,-17.5093422603607,4.20267777174711,18.2887813919314
1.56578566666576,2.36546653389931,-17.2386840033531,3.96677858054638,17.8466520781222
1.57577166666306,1.94408342957497,-17.0156992650032,3.99767175972462,17.5867808696384
1.58575766666763,2.17429357230663,-16.8176903235912,4.76448146760464,17.6142710327148
1.59574466666527,2.92663726866245,-16.6150831317902,6.06274519085884,17.927160188605
1.60573066666257,4.25888910233974,-16.3762781667709,7.34082841873169,18.4447386767811
1.61571666666714,6.21082183420658,-16.372138338089,8.48953089058399,19.4600451273876
1.62570366666478,8.53328969836235,-16.4355958306789,9.71585164189339,20.9127620488756
1.63568966666207,10.4795061922073,-16.1461633336544,11.2943952155113,22.3177508659301
1.64567566666665,11.8300960636139,-15.9866957294941,12.0985616147518,23.2787629904964
1.65566266666428,12.4117244517803,-16.1474134683609,11.8055658245087,23.540629771141
1.66564866666886,12.4712923765183,-16.5175235080719,11.0582799696922,23.4658746325042
1.67563466666616,12.1222369909287,-16.9054581999779,10.434094376564,23.2725905750624
1.68562166666379,12.0545683336258,-17.2577365708351,9.95910399913788,23.2878904524226
1.69560766666837,12.551874024868,-17.2789081692696,9.52031139492989,23.3826118753795
1.70559366666566,13.1811022567749,-17.0476858735085,9.67819440364838,23.6227114713825
1.7155806666633,14.3333218288422,-16.5564039838314,10.655126144886,24.3534461768437
1.72556666666787,15.3393586707115,-15.8791291809082,11.8983307313919,25.0801304256235
1.73555266666517,15.9383252227306,-15.4666315054894,13.0274035155773,25.7480124162974
1.74553966666281,16.2939797759056,-15.4615116834641,13.7131240367889,26.3173306268678
1.75552566666738,16.0427366137505,-15.6348535609245,13.6871507048607,26.2517835269776
1.76551166666468,15.2121828997135,-15.67806214571,13.2190272974968,25.5334060381894
1.77549866666232,14.1396678936482,-15.4048942637444,12.7317963588238,24.4814136426467
1.78548466666689,13.1277101612091,-14.9291694760323,12.3429296207428,23.4001022848922
1.79547066666419,12.2611796987057,-14.3115959143639,12.2663381123543,22.4860257917353
1.8054576666691,11.7370060515404,-13.6198515915871,12.5449228549004,21.9233382007885
1.8154436666664,11.4268486833572,-12.8848004508019,12.9079788136482,21.5222412992448
1.82542966666369,11.1500087499619,-12.0720830833912,13.289513143301,21.1345462379133
1.83541566666827,10.8538636493683,-11.2041025114059,13.6253105521202,20.7120099663671
1.8454026666659,10.1160023367405,-10.1476053678989,13.856682536602,19.9327632028207
1.8553886666632,8.9156625187397,-8.83452889323235,13.6923453712463,18.5746671754545
1.86537566666811,8.1154921066761,-7.55556799829006,13.1364330375195,17.1905117102296
1.87536166666541,7.57932815909386,-6.64776379466057,12.3760950279236,15.9626660352533
1.88534766666271,6.96369294941425,-5.78589882552624,11.365387430191,14.530714922236
1.89533366666728,7.21259488642216,-5.21988133370876,9.72332730710506,13.183769569237
1.90532066666492,7.54055994987488,-6.01227261006832,7.64998591303825,12.3097421079858
1.91530662500008,6.59645038425922,-8.36449753940106,5.74997177839279,12.1053769958211
1.92529262499738,5.73697984993458,-11.9912336325645,4.21414357692003,13.9449499072675
1.93527962500229,7.60132012188435,-15.544012387991,3.90414905369282,17.7380598867754
1.94526562499959,15.2309583091736,-17.2939062774181,5.29478942871094,23.6452126326302
1.95525162499689,27.2484693288803,-17.0437518668175,8.03108404040337,33.1280375109755
1.9652386250018,38.9549061369896,-14.820219476223,11.0099059545994,43.1084869439211
1.9752246249991,45.8237075471878,-13.273633275032,11.8341914534569,49.1533274666864
1.9852106249964,46.1783622264862,-14.3674262988567,8.55848885893822,49.113254910688
1.99519762500131,41.4620214700699,-16.4261022913456,4.43217309236527,44.8169635204235
2.00518362499861,36.2572815012932,-17.4694736051559,3.14404668688774,40.3690227708646
2.01516962499591,34.796537103653,-17.9569980740547,4.78417430520058,39.4479542944884
2.02515662500082,36.2192629051208,-18.6551322340965,6.38028525352478,41.2378103683772
2.03514262499812,38.0116356468201,-18.6891127431393,6.96624408960343,42.9266343473176
2.04512862499541,38.9959910130501,-17.557137401104,7.3236399435997,43.3886631602613
2.05511562500033,38.7017380714416,-15.7900819337368,7.60310644626617,42.4848025164041
2.06510162499762,37.2104524970055,-13.6293509781361,7.58245408058167,40.3468783551001
2.0750876250022,35.8610110187531,-10.6756685829163,6.93955622792244,38.0544274903708
2.08507462499983,34.5492443203926,-7.65777908205986,5.97709868431091,35.888961704984
2.09506062499713,34.3363565540314,-3.97265035450459,5.58306651592255,35.0133969212634
2.10504662500171,35.0806275844574,1.72790309607983,5.70951606273651,35.5841910755251
2.11503362499934,31.1610658550262,7.01973383367062,5.39932010293007,32.3950821250814
2.12501962499664,25.463793861866,10.0109185159206,3.47258360803127,27.5804663536854
2.13500562500121,20.9953118991852,11.521473004818,0.84665226817131,23.9638119256519
2.14499262499885,17.4282881569862,12.4178710448742,-1.38566205561161,21.4445519585379
2.15497862499615,14.5647686576843,13.0598754429817,-3.12825686573982,19.8110783062434
2.16496462500072,12.6334637331963,13.302077640295,-3.9920794826746,18.7746204766545
2.17495162499836,11.2869692516327,13.263586589098,-3.84328187763691,17.8350559204274
2.18493762499565,10.6905813217163,13.0581189393997,-3.33364148497582,17.202213950015
2.19492362500023,10.5588037919998,12.9660276317596,-2.87128109335899,16.9661564646382
2.20491062499786,9.59467277526855,13.0155558872223,-2.83364490509033,16.416211017346
2.21489662500244,8.10938176631928,12.8764541351795,-3.28023067831993,15.5667934087366
2.22488262499974,6.96951736092568,12.6259909915924,-3.96646312326193,14.9573610798233
2.23486962499737,6.15217367649078,12.4156502723694,-4.57953052818775,14.5934818494455
2.24485562500195,5.75571842193604,12.128692317009,-5.28914920449257,14.4294341947517
2.25484162499924,5.8787777531147,11.8173292529583,-6.10050007760525,14.5404745362798
2.26482862499688,6.3600211429596,11.777312078476,-6.63534080028534,14.9393003942166
2.27481462500145,6.91129429578781,12.0967010307312,-7.15206860303879,15.6604038891868
2.28480062499875,7.30826936781406,12.5392838001251,-7.75464698016644,16.4553635377531
