Time (s),Linear Acceleration x (m/s^2),Linear Acceleration y (m/s^2),Linear Acceleration z (m/s^2),Absolute acceleration (m/s^2)
0.021941208280623,-1.26938490986824,0.0897226005792618,1.43440795361996,1.91752819323839
0.0318722083466128,-0.817945947647095,0.0269691127538681,1.34952100038528,1.57828065843687
0.0418042083038017,-0.133561515212059,0.0736854422092438,1.17358880639076,1.18346056513304
0.051736208377406,0.609479845762253,0.235898021757603,1.22119157373905,1.38507126850238
0.0616672083269805,0.865012232959271,0.559886393845081,1.8770626437664,2.14128071625496
0.0715992082841694,0.332994253635407,0.757719626426697,3.19789778888226,3.30326724219589
0.0815305833239108,-0.591647299826145,0.580825565457344,4.40161203503609,4.47901700955187
0.0914615833899006,-1.53379307806492,-0.0280248275399208,4.72542557537556,4.96819418558614
0.10139358334709,-2.16510350346565,-0.939074528217316,4.36621357619763,4.96320009099354
0.111324583296664,-2.68997384637594,-1.66082149922848,3.89695697844028,5.01802361874678
0.121256583370268,-3.03110742419958,-1.86989278793335,3.56777627885342,5.04114459536246
0.131187583319843,-2.92003722399473,-1.70218119442463,3.38312880992889,4.78221692865753
0.141119583277032,-2.34696652829647,-1.33745322436094,3.22019205272198,4.20317378521413
0.151051583350636,-1.28951570391655,-0.847362704873085,2.80745405673981,3.2035406326379
0.160982583300211,-0.174520091414452,-0.292528305351734,2.02806464910507,2.05647180692781
0.170914583373815,0.728383268415928,0.237597514986992,1.19124213516712,1.4163518593322
0.180845583323389,1.42487962335348,0.566013106405735,0.60457695543766,1.64807951043549
0.190777583280578,1.91780896604061,0.584201163053513,0.522450472712517,2.07177139800133
0.200709583354183,2.26898192077875,0.377128745019436,0.892200323939323,2.46708866179921
0.210640583303757,2.47498488306999,0.0410752281546593,1.41075070381165,2.8491147562178
0.220572583377361,2.54403669923544,-0.300517356097698,1.6711886125803,3.05864427274418
0.230503583326936,2.49675143569708,-0.597068545818329,1.58686299204826,3.01801138758511
0.240435583284125,2.34579211503267,-0.745755053758621,1.18277185857296,2.73090470661063
0.250367583357729,2.11253586530685,-0.699540123045445,0.483738396763802,2.27731574500811
0.260298583307303,1.86538633882999,-0.474514998793602,-0.392106095552444,1.96432631386515
0.270230583380908,1.59864951699972,-0.17805064022541,-1.25258644402027,2.03871408207023
0.280161583330482,1.3018357872963,0.0526284492015839,-2.0861099588871,2.45955299420823
0.290093583287671,1.19655052989721,0.258133228719234,-2.76991317808628,3.02833038958803
0.300025583361275,1.08364371925592,0.349999710917473,-3.07768254339695,3.28160225284166
0.30995658331085,1.00551263898611,0.360262451469898,-2.87604949772358,3.06798067374225
0.319888583384454,0.972820271551609,0.334703979492187,-2.47495330810547,2.68026116487402
0.329819583334029,0.897793185710907,0.399888739585876,-2.10695352852345,2.32490790779203
0.339751583291218,0.822269671261311,0.616113511919975,-1.83025568246841,2.09894238488208
0.349683583364822,0.867779720127583,0.726178429573774,-1.38410961985588,1.78777408920158
0.359614583314396,1.00197331935167,0.791343162953854,-0.909944284558296,1.56785622275983
0.369546583388001,1.26825318127871,0.872959914654493,-0.621211114525795,1.66024949728272
0.37947858334519,1.66051481276751,0.83969671279192,-0.54065811753273,1.93770772123865
0.389409583294764,2.34068164855242,0.649650217294693,-1.04420395731926,2.64408734522563
0.399341583368368,2.1608022916317,0.735151420533657,-1.15055896282196,2.5560320971309
0.409272583317943,0.821832299530506,0.963492646962404,-1.40532975018024,1.891739441901
0.419204583275132,-0.719243777990341,0.463691364079714,-1.38534981429577,1.62834744488676
0.429136583348736,-1.60126643836498,-1.07841411575675,-1.86370701849461,2.68336264088243
0.439067583298311,-0.511326144933701,-1.91839836537838,-3.05130692303181,3.64035446808701
0.448999583371915,0.757322308123112,-2.06323565125465,-2.89529326915741,3.63499677378362
0.458930583321489,1.52325639545918,-1.79900977000594,-1.76950194239616,2.94752155599037
0.468862583278678,2.253932941854,-1.40518766283989,-0.630658460855484,2.72992603717036
0.478794583352283,2.41616481721401,-0.946885531246662,0.260393469929695,2.60811222772509
0.488725583301857,2.13272103846073,-0.581784289553761,0.7873919069767,2.34669086217955
0.498657583375461,1.71006060987711,-0.23237931355834,0.507101531624794,1.79873827951688
0.508588583325036,1.11741519033909,0.111033362746239,0.0261668747663498,1.12322296120508
0.518520583282225,0.387945947796106,0.153857054561377,-0.469026217460632,0.627821347450969
0.528452583355829,-0.39209776327014,-0.148978868722916,-1.04861685097218,1.12939481999441
0.538383583305404,-0.799396240711212,-0.387907429262996,-1.2237666875124,1.51231988309541
0.548315583379008,-0.942913371473551,-0.475558726787567,-0.901161766648293,1.38828464602764
0.558246583328582,-0.768329983949661,-0.560875158011913,-0.402983086109161,1.03310564551794
0.568178583285771,-0.306954994350672,-0.49289535574615,0.211031275391579,0.617819876231205
0.578110583359376,-1.24377878308296,0.648540123403072,3.8266506421566,4.07564045151539
0.58804158330895,-3.82415768176317,4.68878546029329,-0.732905797362328,6.09475528429595
0.597973583382554,-0.830592013299465,8.22992737948895,-3.36030771195889,8.92822802594496
0.607904583332129,3.96243468403816,7.45340252280235,-2.17515252828598,8.71695969438278
0.617836583289318,7.00963159918785,6.15343667507172,-0.852397742271423,9.36623189876697
0.627768583362922,6.97299353063107,5.33573280215263,1.52072688996792,8.91096479557976
0.637699583312497,5.61428538501263,4.5716321092844,3.73423013627529,8.14644064838584
0.647631583386101,5.34709335744381,4.36483626455069,4.46802178680897,8.22231242880956
0.657562583335675,6.27788530468941,4.59268325507641,3.76636175572872,8.642341364197
0.667494583292864,7.38299795329571,4.71579755008221,3.48491129279137,9.42825604395398
0.677426583366469,8.32367578804493,3.7536189186573,4.20903749585152,10.0543140120284
0.687357583316043,9.51677499890327,2.31548190325499,3.7620617133379,10.4920718239542
0.697289583389647,9.83721644997597,1.07842084005475,3.12499236524105,10.3778319640837
0.707220583339222,9.65380566716194,-0.233345017768443,2.39237834393978,9.9485621019923
0.717152583296411,8.95806184887886,-1.76913005948067,1.35849296808243,9.23158688417254
0.727084583370015,7.3263588988781,-2.94241071760654,0.606874911189079,7.91843499083543
0.73701558331959,5.31456412732601,-3.51666108906269,-0.498053550124168,6.3921478720051
0.746947583276778,4.15218238681555,-3.39998662501574,-1.54499049603939,5.58457905813135
0.756878583342768,4.04131976276636,-3.27486848920584,-1.88484061002731,5.53259913347492
0.766810583299957,4.09018377453089,-3.88374519467354,-2.45895708024502,6.1530114553016
0.776742583373562,4.21639212369919,-5.08338860929012,-3.017818749547,7.26126933111357
0.786673583323136,3.93489488303661,-6.35494342088699,-3.22235669195652,8.13955074149794
0.796605583280325,3.26836199998856,-7.45208280622959,-3.53245734214783,8.87096292337906
0.806537583353929,2.18613330692053,-8.32588778972626,-3.99499490439892,9.48997210791019
0.816468583303504,0.692305947840214,-8.9996741437912,-4.15405846595764,9.93627817436857
0.826400583377108,-0.781696426570415,-9.89042494297028,-3.8887966042757,10.6561857099653
0.836331583326682,-2.09139847308397,-10.9439154481888,-3.87731851994991,11.7973230783712
0.846263583283871,-3.05152268528938,-11.9293888020515,-3.84673816680908,12.9003683053366
0.856195583357476,-3.83589275121689,-13.0228894650936,-3.93997143566608,14.1362335200275
0.86612658330705,-4.45635717630386,-13.928976341486,-3.94936966538429,15.1483669733186
0.876058583380654,-4.79382922768593,-14.6652168059349,-3.89312529802322,15.9124418998279
0.885989583330229,-4.91785978138447,-15.2950157260895,-3.72827416241169,16.4931161131179
0.895921583287418,-4.80414254665375,-15.6808840119839,-3.26250893712044,16.721658816357
0.905853583361022,-4.32023575007916,-15.7041804885864,-2.42599018603563,16.4672751278741
0.915784583310597,-3.30617711305618,-15.4557428205013,-1.2574130281806,15.8553423412998
0.925716583384201,-1.67105120301247,-15.0067643666267,0.16143811583519,15.1003791721861
0.935647583333775,0.179623541235924,-14.3496916937828,1.83439185664058,14.4675813392182
0.945579583290964,2.29386620879173,-13.5061244165897,3.6970435988903,14.1896212180711
0.955511583364569,4.11466869771481,-12.4361354076862,5.39304604053497,14.1659065352554
0.965442583314143,5.61392168819904,-11.2276024711132,6.63110624670982,14.1967159591834
0.975374583387747,7.36479615569115,-9.75237744390965,7.75761502683163,14.4751400382823
0.985305583337322,9.20240938961506,-7.97263293385506,8.82937632679939,15.0401163822728
0.995237583294511,10.8594454014301,-6.30776925444603,9.44363802552223,15.712982102423
1.00516958336812,12.5853575205803,-4.74363935977221,9.49398489117622,16.4629610766195
1.01510058331769,13.6439561533928,-2.87537999153137,9.9087384223938,17.1058015519539
1.02503258327488,14.0415551233292,-1.12177487432957,10.9954761958122,17.8696431392135
1.03496358334087,14.0290257096291,0.373116714544594,12.252328183651,18.6298771966965
1.04489558329806,13.5173499011993,1.69214576438069,13.0418098855019,18.8592393995341
1.05482758337166,12.607015607357,2.5153207308054,13.167822060585,18.4025872833738
1.06475858332124,11.2715197384357,2.97954872310162,12.60205950737,17.1678994531823
1.07469020830467,9.91759812355042,3.57415003627539,11.7561521744728,15.7905166150896
1.08462220837828,8.85574025273323,4.5082713881135,10.871757298708,14.7290105945638
1.09455320832785,7.96560516536236,5.18877239227295,10.0071634340286,13.8028093004512
1.10448520828504,7.56192859947682,5.82590196669102,9.47083751857281,13.4469573202374
1.11441620835103,7.78562318980694,6.34141062498093,8.96200170278549,13.4590821265423
1.12434820830822,7.93845595836639,6.83839179575443,8.64725310087204,13.5852004602695
1.13428020838182,7.63924691677094,7.5900987303257,7.81654268145561,13.3066160868383
1.1442112083314,7.56142690837383,8.65303365826607,7.05523403406143,13.4843055311404
1.15414320828859,7.41922262370586,9.66727882146835,6.3856319475174,13.7578137624142
1.16407420835458,7.54579086899757,10.4805364716053,5.58047736883164,14.0684872049321
1.17400620831177,7.79410983860493,11.1401760721207,4.91029757738113,14.4555419612176
1.18393820838537,8.0623508566618,11.5929832828045,3.80561879217625,14.6246879324882
1.19386920833495,8.08446268737316,11.8316280341148,2.76918578445911,14.5950110924943
1.20380120829213,7.89768741667271,12.0963735866547,1.91738431200385,14.5729915624523
1.21373220835812,7.80510494291782,12.4940017926693,1.33091048240662,14.7915876996813
1.22366420831531,7.69418326199055,13.0415923690796,1.2315885078907,15.1921163056073
1.23359620838892,7.91990098893642,13.4805732536316,1.38203897461295,15.6958822195005
1.24352720833849,8.56601773381233,13.7013851666451,1.8341239079833,16.2624913777251
1.25345920829568,9.23732545316219,13.7893647122383,2.22294269889593,16.7456333095328
1.26339120836928,9.78513880848885,13.3145380568504,1.96069010674954,16.6394161815677
1.27332220831886,9.55409602224827,12.2424744558334,0.947985684871674,15.5582006820453
1.28325420827605,8.75092423439026,11.0629495561123,-0.521400312781334,14.1152182456841
1.29318520834204,8.08650687396526,9.8766617667675,-2.09188349962234,12.9350692945112
1.30311720829923,8.17126752734184,8.96442303478718,-2.82635284245014,12.4546683512665
1.31304920837283,8.93144123017788,7.82804824769497,-2.55844423860312,12.1488525687986
1.32298020832241,10.9215416622162,5.12284737467766,-2.7435246938467,12.3713606870672
1.33291220827959,9.54509949624539,2.94198796391487,-6.28094398319721,11.7989183781017
1.34284320834558,5.17317611396313,1.85239090204239,-9.08118959248066,10.61419368462
1.35277520830277,2.0496016985178,-0.523362930715084,-8.69054705500603,8.94429337595138
1.36270720837638,-0.00078001856803894,-2.47261471420527,-8.72250091910362,9.06619249834774
1.37263820832595,-0.897496731877327,-2.8123569470644,-9.69816381454468,10.1375161334114
1.38257020828314,-0.746136292219162,-3.22486163914204,-8.76105862855911,9.36550053393979
1.39250120834913,-0.182749462723732,-3.41490667283535,-7.22274916112423,7.99143856854459
1.40243320830632,1.44076855480671,-2.29221612453461,-6.34813550770283,6.90136893770024
1.41236520837992,3.6803030204773,-2.32422261357307,-4.51488429665566,6.27142896732209
1.4222962083295,5.75260945737362,-1.60505309522152,-2.08360150337219,6.3253542377008
1.43222820828669,6.80562575340271,-0.96423334300518,-1.51284484326839,7.03810964357227
1.44216020836029,6.17187236130238,-1.60599040389061,-1.91652082443237,6.65914902161529
1.45209120830987,4.19159057378769,-2.70830399036407,-2.11819012284279,5.42135328483549
1.46202320838347,2.33136966526508,-4.69223736405373,-0.258513590097427,5.24587507218816
1.47195420833305,0.948716586828232,-4.90050963073969,-0.138302437663078,4.99341419945902
1.48188620829023,0.421396552920341,-3.17510709643364,-2.56898939967155,4.1059209276679
1.49181820836384,0.234921829104423,-1.86302435606718,-3.78573708951473,4.22585533685392
1.50174920831341,0.800067501068115,-1.14104905128479,-3.07042673349381,3.37188690045451
1.51168120838702,1.54453382849693,-1.24218015432358,-1.60124188005924,2.54805255864599
1.52161220833659,1.23144817471504,-1.78902638018131,-0.0459053206443787,2.17236905116445
1.53154420829378,1.07760266840458,-2.30165703892708,1.60693648338318,3.00684178124209
1.54147620836739,-0.0529249030351639,-2.06767310321331,0.14341699719429,2.0733165561962
1.55140720831696,-0.370019407868385,-2.84223475724459,0.196688640117645,2.87296000644628
1.56133920839056,-1.09073200643063,-1.49170481979847,-5.63310406386852,5.92846868707546
1.57127020834014,-1.0854712665081,0.310091294646263,-7.99372150182724,8.07304081063667
1.58120220829733,-0.548833694458008,-0.000505199432373047,-5.54741896569729,5.57450229710033
1.59113420837093,1.38521825194359,0.944879351556301,-6.24707515597344,6.4681971675959
1.60106520832051,1.12351032793522,1.1466313880682,-4.80371219158173,5.06484844952257
1.6109972082777,0.878065849542618,0.244166861772537,-2.08543285131454,2.27588384366662
1.6209292083513,0.496597008705139,-1.01146773576736,2.61091101229191,2.84368280292659
1.63086020830087,-0.469330272674561,-1.70581348478794,3.80209116697311,4.19356266099699
1.64079220837448,-1.66832289218903,-1.05114869534969,1.2246700823307,2.32121340313492
1.65072320832405,-2.4118595123291,-0.657973144054413,0.807825586795807,2.6272756125293
1.66065520828124,-1.87240475177765,-0.165407790541649,-0.980292136073112,2.1199603684263
1.67058720835485,-2.09253429472446,2.12735124796629,-1.84528945863247,3.50847777432918
1.68051820830442,-1.47850005269051,4.10785932272673,-3.74195606231689,5.75001789505293
1.69045020837802,-1.0110818195343,3.64760743707418,-1.82582173883915,4.20249348396988
1.7003812083276,-0.630532160997391,1.13735185682774,4.06968372881413,4.27240748347533
1.71031320828479,-0.00360948622226715,0.328753852844238,7.26159221470356,7.26903113329377
1.72024520835839,-1.39753014922142,3.4638426053524,2.36408015906811,4.42042657569797
1.73017620830797,0.178567534089088,3.64250281780958,1.94679595291615,4.13397237826671
1.74010820838157,-1.08937545239925,3.85993591725826,0.75105087697506,4.0804315435301
1.75004020833876,-1.21899302065372,4.44356112957001,-1.53629451692104,4.85709587504196
1.75997120828833,0.800375064611435,4.09312697052956,1.16598859548569,4.33056786642709
1.76990320836194,1.00970538496971,5.31136453092098,0.856307775378227,5.47387989920637
1.77983420831151,0.683712002635002,5.34271847069264,-1.14098531663418,5.5058105899497
1.78976620838512,1.11258539021015,4.95540826141834,-0.532340453267097,5.10659413366941
1.79969820834231,1.44777527332306,4.58139871358871,-0.731767929196358,4.86011848797108
1.80962920829188,1.98636756956577,4.65488476574421,-1.05285023510456,5.16934250377549
1.81956120836549,2.79992985963821,4.43370915591717,-0.181085929870605,5.24692064092402
1.82949220831506,2.92670392692089,3.77098924219608,0.479955832958221,4.79753200533393
1.83942420838866,3.11761025547981,3.26599972486496,0.223290547728539,4.52063121439869
1.84935620834585,2.50447297632694,2.01704966425896,0.743349509239197,3.30052158455679
1.85928720829543,1.46354404449463,0.600102666020393,1.18354661464691,1.97556750554939
1.86921920836903,1.06378277420998,0.087555622458458,0.236302941441536,1.09322406571749
1.87915120832622,0.470588008761406,-1.55514594018459,-0.115581911802292,1.62889261389403
1.8890822082758,0.355499601960182,-2.54695007443428,-0.953151699900627,2.74259599862577
1.8990142083494,-0.0907423549890518,-4.46839776277542,-0.0458164429664612,4.46955388017769
1.90894520829897,-0.2631089168787,-7.0393383783102,1.82815068483353,7.27761266027186
1.91887720837258,-0.311570055484772,-8.57849686145783,2.47060648798943,8.93261331974087
1.92880920832977,0.697586275935173,-8.27665715754032,1.09349130749702,8.37767292005412
1.93874020827934,1.31227423667908,-6.75152614474297,-1.40462691485882,7.01983943729095
1.94867220835295,1.05488623559475,-5.92199160039425,-2.34603623628616,6.45652038695419
1.95860320830252,0.391516111493111,-6.43164017915726,-1.52141393780708,6.62072357298372
1.96853520837612,0.0620781344175339,-6.30493043124676,0.882526105642319,6.36669881216117
1.97846720833331,0.436358408331871,-3.51362872302532,-1.16861165642738,3.72849147341501
1.98839820828289,-0.32305574119091,-1.49365135788918,-2.34236535429955,2.79679009649695
1.99833020835649,-1.24426468670368,-1.36160719513893,-0.558589189052582,1.92722355905026
2.00826220831368,-0.466047645807266,-3.76489059627056,6.25296856462956,7.31376903383573
2.01819320837967,0.200712693929672,-6.16069657802582,17.154227989912,18.2280554596996
2.02812520833686,-2.49760542154312,4.86152887523174,-14.2639598178864,15.2752428960298
2.03805620828643,-0.916327689886093,5.98842123270035,-9.03487321257591,10.8779492213758
2.04798820836004,1.02107237219811,3.51638568520546,-0.217729845643044,3.66810078406631
2.05792020831723,-0.0645900982618332,3.32946014106274,1.78667229115963,3.77911029049386
2.06785120838322,-1.16459403455257,4.51526845872402,-0.557180594801903,4.69620897478884
2.07778333337046,-2.29219448983669,5.44352680742741,-2.69742232203484,6.49324471014533
2.08771433332004,-3.03134862184525,5.42909412503243,-2.32913719832897,6.63995614249555
2.09764633327723,-3.97778245568275,5.77146146535873,-3.45603891134262,7.81515998988969
2.10757833335083,-4.93536108255386,5.77240462124348,-4.44918147325516,8.80191228702588
2.1175093333004,-5.59249398171902,5.61164536714554,-5.29653891563416,9.5299463349484
2.12744133337401,-5.59299333393574,5.42587464809418,-5.90532586634159,9.7772472464372
2.1373733333312,-5.10819366753101,5.03531280219555,-6.08535111129284,9.406355070306
2.14730433328077,-3.8160426235199,4.13015738725662,-4.40872985064983,7.14543772235417
2.15723633335438,-2.36363460123539,1.71565961122513,-0.450534982681274,2.95520527212002
2.16716733330395,-2.16919713914394,-0.14067874610424,1.66654533863068,2.73908380736833
2.17709933337755,-3.20687034130096,0.868308600783348,-0.0641787466406822,3.32296495973558
2.18703133333474,-1.84600749671459,-0.0470735943317413,-0.558278117179871,1.92915371531967
2.19696233328432,-0.822446549534798,-2.78116848349571,2.78403508096933,4.02021986867627
2.20689433335792,-0.243594419360161,-0.575708082318306,1.3105779594183,1.4520305178966
2.2168253333075,-0.228057782649994,-0.546054512858391,1.64971208184958,1.7526368238288
2.2267573333811,1.21890882074833,-0.251602181196213,2.22619872093201,2.55049075982645
2.23668933333829,1.30718365073204,-0.888899570703507,3.11202382564545,3.49049621614505
2.24662033328786,0.810967295765877,-0.872554264068604,2.15269688129425,2.46030948485757
2.25655233336147,0.875032898783684,-0.34582012116909,0.702725101411343,1.17434947878081
2.26648433331866,0.609630119204521,-0.527434639334679,1.03940368562937,1.31536922676157
